%delta(deg)  depth(km)  Tp(seconds)  Ts(seconds)  Tps(seconds)
   0.00000     0.000     0.00000     0.00000     0.00000
   0.00344     1.000     0.18462     0.31477     0.13015
   0.00688     2.000     0.36924     0.62954     0.26030
   0.01032     3.000     0.55387     0.94432     0.39045
   0.01376     4.000     0.73850     1.25911     0.52061
   0.01721     5.000     0.92314     1.57390     0.65076
   0.02065     6.000     1.10778     1.88870     0.78092
   0.02410     7.000     1.29243     2.20351     0.91108
   0.02755     8.000     1.47708     2.51832     1.04124
   0.03100     9.000     1.66173     2.83313     1.17140
   0.03445    10.000     1.84639     3.14795     1.30156
   0.03790    11.000     2.03105     3.46278     1.43173
   0.04135    12.000     2.21572     3.77762     1.56190
   0.04480    13.000     2.40039     4.09246     1.69207
   0.04826    14.000     2.58506     4.40730     1.82224
   0.05171    15.000     2.76974     4.72215     1.95241
   0.05517    16.000     2.95443     5.03701     2.08258
   0.05863    17.000     3.13912     5.35187     2.21276
   0.06209    18.000     3.32381     5.66674     2.34294
   0.06555    19.000     3.50850     5.98162     2.47311
   0.06901    20.000     3.69321     6.29650     2.60329
   0.07297    21.000     3.86122     6.58305     2.72182
   0.07692    22.000     4.02925     6.86960     2.84035
   0.08088    23.000     4.19728     7.15616     2.95888
   0.08484    24.000     4.36531     7.44273     3.07742
   0.08881    25.000     4.53335     7.72931     3.19595
   0.09277    26.000     4.70140     8.01589     3.31449
   0.09673    27.000     4.86945     8.30248     3.43303
   0.10070    28.000     5.03750     8.58907     3.55157
   0.10467    29.000     5.20556     8.87568     3.67011
   0.10863    30.000     5.37363     9.16229     3.78866
   0.11260    31.000     5.54170     9.44891     3.90721
   0.11658    32.000     5.70977     9.73553     4.02576
   0.12055    33.000     5.87786    10.02216     4.14431
   0.12452    34.000     6.04594    10.30880     4.26286
   0.12850    35.000     6.21403    10.59545     4.38142
   0.13369    36.000     6.35750    10.84604     4.48854
   0.13888    37.000     6.50097    11.09662     4.59565
   0.14408    38.000     6.64445    11.34720     4.70275
   0.14928    39.000     6.78794    11.59777     4.80983
   0.15448    40.000     6.93143    11.84833     4.91690
   0.15968    41.000     7.07493    12.09888     5.02396
   0.16489    42.000     7.21843    12.34943     5.13100
   0.17010    43.000     7.36194    12.59997     5.23803
   0.17531    44.000     7.50545    12.85050     5.34505
   0.18052    45.000     7.64898    13.10103     5.45205
   0.18573    46.000     7.79250    13.35154     5.55904
   0.19094    47.000     7.93604    13.60206     5.66602
   0.19616    48.000     8.07958    13.85256     5.77298
   0.20138    49.000     8.22312    14.10306     5.87993
   0.20660    50.000     8.36668    14.35355     5.98687
   0.21182    51.000     8.51023    14.60403     6.09379
   0.21705    52.000     8.65380    14.85450     6.20070
   0.22228    53.000     8.79737    15.10497     6.30760
   0.22751    54.000     8.94095    15.35543     6.41448
   0.23274    55.000     9.08453    15.60588     6.52135
   0.23797    56.000     9.22812    15.85633     6.62821
   0.24321    57.000     9.37171    16.10676     6.73505
   0.24844    58.000     9.51532    16.35720     6.84188
   0.25368    59.000     9.65892    16.60762     6.94869
   0.25892    60.000     9.80254    16.85804     7.05550
   0.26417    61.000     9.94616    17.10845     7.16229
   0.26941    62.000    10.08979    17.35885     7.26906
   0.27466    63.000    10.23342    17.60924     7.37582
   0.27991    64.000    10.37706    17.85963     7.48257
   0.28516    65.000    10.52071    18.11001     7.58931
   0.29042    66.000    10.66436    18.36038     7.69603
   0.29567    67.000    10.80802    18.61075     7.80273
   0.30093    68.000    10.95168    18.86111     7.90943
   0.30619    69.000    11.09535    19.11146     8.01611
   0.31145    70.000    11.23903    19.36180     8.12277
   0.31671    71.000    11.38271    19.61213     8.22942
   0.32198    72.000    11.52640    19.86246     8.33606
   0.32725    73.000    11.67009    20.11278     8.44269
   0.33252    74.000    11.81380    20.36310     8.54930
   0.33779    75.000    11.95750    20.61340     8.65590
   0.34306    76.000    12.10122    20.86371     8.76249
   0.34834    77.000    12.24494    21.11400     8.86906
   0.35362    78.000    12.38867    21.36429     8.97562
   0.35890    79.000    12.53240    21.61457     9.08217
   0.36418    80.000    12.67614    21.86484     9.18870
   0.36947    81.000    12.81988    22.11511     9.29522
   0.37475    82.000    12.96364    22.36537     9.40173
   0.38004    83.000    13.10739    22.61562     9.50822
   0.38533    84.000    13.25116    22.86586     9.61471
   0.39062    85.000    13.39493    23.11610     9.72117
   0.39592    86.000    13.53871    23.36634     9.82763
   0.40122    87.000    13.68249    23.61656     9.93407
   0.40652    88.000    13.82628    23.86678    10.04050
   0.41182    89.000    13.97007    24.11699    10.14692
   0.41712    90.000    14.11388    24.36720    10.25332
   0.42243    91.000    14.25768    24.61740    10.35971
   0.42773    92.000    14.40150    24.86759    10.46609
   0.43304    93.000    14.54532    25.11777    10.57245
   0.43835    94.000    14.68915    25.36795    10.67880
   0.44367    95.000    14.83298    25.61812    10.78514
   0.44898    96.000    14.97682    25.86829    10.89146
   0.45430    97.000    15.12067    26.11845    10.99777
   0.45962    98.000    15.26453    26.36860    11.10407
   0.46494    99.000    15.40839    26.61874    11.21035
   0.47027   100.000    15.55225    26.86888    11.31663
   0.47559   101.000    15.69613    27.11901    11.42288
   0.48092   102.000    15.84001    27.36913    11.52913
   0.48625   103.000    15.98389    27.61925    11.63536
   0.49158   104.000    16.12778    27.86936    11.74158
   0.49692   105.000    16.27168    28.11946    11.84778
   0.50225   106.000    16.41559    28.36956    11.95397
   0.50759   107.000    16.55950    28.61965    12.06015
   0.51293   108.000    16.70342    28.86973    12.16631
   0.51827   109.000    16.84734    29.11980    12.27246
   0.52362   110.000    16.99127    29.36987    12.37859
   0.52897   111.000    17.13521    29.61993    12.48472
   0.53432   112.000    17.27916    29.86998    12.59083
   0.53967   113.000    17.42311    30.12003    12.69692
   0.54502   114.000    17.56706    30.37007    12.80301
   0.55038   115.000    17.71103    30.62010    12.90908
   0.55573   116.000    17.85500    30.87013    13.01514
   0.56109   117.000    17.99897    31.12015    13.12118
   0.56645   118.000    18.14296    31.37017    13.22721
   0.57182   119.000    18.28695    31.62018    13.33323
   0.57718   120.000    18.43094    31.87018    13.43924
   0.58255   121.000    18.57494    32.12017    13.54523
   0.58793   122.000    18.71892    32.37019    13.65126
   0.59330   123.000    18.86287    32.62022    13.75734
   0.59868   124.000    19.00680    32.87026    13.86346
   0.60407   125.000    19.15071    33.12033    13.96962
   0.60946   126.000    19.29459    33.37041    14.07583
   0.61486   127.000    19.43844    33.62052    14.18207
   0.62026   128.000    19.58227    33.87063    14.28836
   0.62566   129.000    19.72608    34.12077    14.39469
   0.63107   130.000    19.86986    34.37093    14.50107
   0.63648   131.000    20.01362    34.62110    14.60748
   0.64190   132.000    20.15735    34.87129    14.71394
   0.64732   133.000    20.30106    35.12150    14.82044
   0.65275   134.000    20.44474    35.37173    14.92698
   0.65818   135.000    20.58841    35.62197    15.03357
   0.66362   136.000    20.73204    35.87224    15.14019
   0.66906   137.000    20.87566    36.12252    15.24686
   0.67450   138.000    21.01924    36.37282    15.35357
   0.67995   139.000    21.16281    36.62313    15.46032
   0.68541   140.000    21.30635    36.87347    15.56712
   0.69087   141.000    21.44987    37.12382    15.67395
   0.69633   142.000    21.59336    37.37420    15.78083
   0.70180   143.000    21.73684    37.62459    15.88775
   0.70727   144.000    21.88028    37.87499    15.99471
   0.71275   145.000    22.02371    38.12542    16.10171
   0.71823   146.000    22.16711    38.37587    16.20876
   0.72372   147.000    22.31048    38.62633    16.31585
   0.72921   148.000    22.45384    38.87681    16.42297
   0.73470   149.000    22.59717    39.12731    16.53014
   0.74020   150.000    22.74048    39.37783    16.63735
   0.74571   151.000    22.88376    39.62837    16.74461
   0.75122   152.000    23.02702    39.87892    16.85190
   0.75673   153.000    23.17026    40.12950    16.95924
   0.76225   154.000    23.31348    40.38009    17.06662
   0.76778   155.000    23.45667    40.63070    17.17404
   0.77331   156.000    23.59984    40.88134    17.28150
   0.77884   157.000    23.74298    41.13198    17.38900
   0.78438   158.000    23.88611    41.38265    17.49654
   0.78992   159.000    24.02921    41.63334    17.60413
   0.79547   160.000    24.17229    41.88405    17.71176
   0.80102   161.000    24.31534    42.13477    17.81943
   0.80657   162.000    24.45837    42.38551    17.92714
   0.81213   163.000    24.60138    42.63628    18.03489
   0.81770   164.000    24.74437    42.88706    18.14269
   0.82327   165.000    24.88734    43.13786    18.25052
   0.82885   166.000    25.03028    43.38868    18.35840
   0.83443   167.000    25.17320    43.63952    18.46632
   0.84001   168.000    25.31610    43.89037    18.57428
   0.84560   169.000    25.45897    44.14125    18.68228
   0.85119   170.000    25.60182    44.39215    18.79032
   0.85679   171.000    25.74466    44.64306    18.89840
   0.86240   172.000    25.88746    44.89399    19.00653
   0.86801   173.000    26.03025    45.14495    19.11470
   0.87362   174.000    26.17302    45.39592    19.22290
   0.87924   175.000    26.31576    45.64691    19.33115
   0.88486   176.000    26.45848    45.89792    19.43945
   0.89049   177.000    26.60118    46.14895    19.54778
   0.89612   178.000    26.74385    46.40000    19.65615
   0.90176   179.000    26.88651    46.65107    19.76457
   0.90740   180.000    27.02914    46.90216    19.87302
   0.91304   181.000    27.17175    47.15327    19.98152
   0.91869   182.000    27.31434    47.40440    20.09006
   0.92435   183.000    27.45691    47.65555    20.19863
   0.93001   184.000    27.59946    47.90671    20.30725
   0.93568   185.000    27.74199    48.15790    20.41592
   0.94135   186.000    27.88449    48.40911    20.52462
   0.94702   187.000    28.02697    48.66033    20.63336
   0.95270   188.000    28.16944    48.91158    20.74214
   0.95839   189.000    28.31188    49.16284    20.85097
   0.96408   190.000    28.45430    49.41413    20.95983
   0.96977   191.000    28.59669    49.66543    21.06874
   0.97547   192.000    28.73907    49.91676    21.17769
   0.98117   193.000    28.88143    50.16810    21.28668
   0.98688   194.000    29.02376    50.41947    21.39570
   0.99260   195.000    29.16608    50.67085    21.50477
   0.99832   196.000    29.30837    50.92226    21.61389
   1.00404   197.000    29.45065    51.17368    21.72304
   1.00977   198.000    29.59290    51.42513    21.83223
   1.01550   199.000    29.73513    51.67659    21.94146
   1.02124   200.000    29.87734    51.92808    22.05074
   1.02698   201.000    30.01953    52.17958    22.16005
   1.03273   202.000    30.16170    52.43111    22.26941
   1.03848   203.000    30.30385    52.68265    22.37881
   1.04424   204.000    30.44597    52.93422    22.48825
   1.05000   205.000    30.58808    53.18581    22.59772
   1.05577   206.000    30.73017    53.43741    22.70724
   1.06154   207.000    30.87224    53.68904    22.81680
   1.06732   208.000    31.01428    53.94069    22.92640
   1.07310   209.000    31.15631    54.19236    23.03605
   1.07889   210.000    31.29831    54.44404    23.14573
   1.08468   211.000    31.44030    54.69555    23.25525
   1.09048   212.000    31.58226    54.94700    23.36474
   1.09629   213.000    31.72419    55.19840    23.47422
   1.10209   214.000    31.86608    55.44975    23.58366
   1.10791   215.000    32.00795    55.70104    23.69309
   1.11373   216.000    32.14979    55.95229    23.80249
   1.11956   217.000    32.29161    56.20348    23.91187
   1.12539   218.000    32.43339    56.45462    24.02123
   1.13123   219.000    32.57515    56.70571    24.13057
   1.13707   220.000    32.71687    56.95675    24.23988
   1.14292   221.000    32.85857    57.20774    24.34917
   1.14878   222.000    33.00024    57.45867    24.45843
   1.15464   223.000    33.14188    57.70956    24.56768
   1.16051   224.000    33.28349    57.96039    24.67690
   1.16638   225.000    33.42508    58.21117    24.78610
   1.17226   226.000    33.56663    58.46191    24.89527
   1.17815   227.000    33.70816    58.71259    25.00442
   1.18404   228.000    33.84966    58.96322    25.11355
   1.18994   229.000    33.99114    59.21380    25.22266
   1.19584   230.000    34.13258    59.46433    25.33175
   1.20175   231.000    34.27400    59.71481    25.44081
   1.20767   232.000    34.41539    59.96524    25.54985
   1.21359   233.000    34.55675    60.21562    25.65887
   1.21951   234.000    34.69809    60.46595    25.76786
   1.22545   235.000    34.83940    60.71623    25.87683
   1.23139   236.000    34.98068    60.96646    25.98578
   1.23733   237.000    35.12193    61.21664    26.09471
   1.24328   238.000    35.26316    61.46677    26.20362
   1.24924   239.000    35.40436    61.71686    26.31250
   1.25520   240.000    35.54553    61.96689    26.42136
   1.26117   241.000    35.68667    62.21687    26.53020
   1.26714   242.000    35.82779    62.46681    26.63901
   1.27313   243.000    35.96889    62.71669    26.74781
   1.27911   244.000    36.10995    62.96653    26.85658
   1.28511   245.000    36.25099    63.21632    26.96533
   1.29110   246.000    36.39200    63.46606    27.07406
   1.29711   247.000    36.53299    63.71575    27.18276
   1.30312   248.000    36.67395    63.96540    27.29145
   1.30914   249.000    36.81488    64.21499    27.40011
   1.31516   250.000    36.95579    64.46454    27.50875
   1.32119   251.000    37.09667    64.71404    27.61736
   1.32722   252.000    37.23753    64.96349    27.72596
   1.33326   253.000    37.37836    65.21289    27.83453
   1.33931   254.000    37.51916    65.46225    27.94309
   1.34537   255.000    37.65994    65.71155    28.05162
   1.35143   256.000    37.80069    65.96082    28.16012
   1.35749   257.000    37.94142    66.21003    28.26861
   1.36356   258.000    38.08212    66.45919    28.37707
   1.36964   259.000    38.22280    66.70831    28.48552
   1.37572   260.000    38.36345    66.95739    28.59394
   1.38181   261.000    38.50407    67.20641    28.70234
   1.38791   262.000    38.64467    67.45539    28.81072
   1.39401   263.000    38.78525    67.70432    28.91907
   1.40012   264.000    38.92580    67.95320    29.02741
   1.40624   265.000    39.06632    68.20204    29.13572
   1.41236   266.000    39.20682    68.45083    29.24401
   1.41848   267.000    39.34730    68.69958    29.35228
   1.42462   268.000    39.48775    68.94828    29.46053
   1.43076   269.000    39.62818    69.19693    29.56875
   1.43690   270.000    39.76858    69.44554    29.67696
   1.44305   271.000    39.90896    69.69410    29.78514
   1.44921   272.000    40.04931    69.94262    29.89331
   1.45538   273.000    40.18964    70.19109    30.00145
   1.46155   274.000    40.32994    70.43951    30.10957
   1.46772   275.000    40.47022    70.68789    30.21767
   1.47391   276.000    40.61048    70.93622    30.32574
   1.48010   277.000    40.75071    71.18451    30.43380
   1.48629   278.000    40.89092    71.43276    30.54183
   1.49249   279.000    41.03111    71.68096    30.64985
   1.49870   280.000    41.17127    71.92911    30.75784
   1.50492   281.000    41.31141    72.17722    30.86581
   1.51114   282.000    41.45152    72.42528    30.97376
   1.51736   283.000    41.59161    72.67330    31.08169
   1.52360   284.000    41.73168    72.92128    31.18960
   1.52984   285.000    41.87172    73.16921    31.29749
   1.53608   286.000    42.01174    73.41710    31.40535
   1.54234   287.000    42.15174    73.66494    31.51320
   1.54859   288.000    42.29172    73.91274    31.62102
   1.55486   289.000    42.43167    74.16050    31.72883
   1.56113   290.000    42.57160    74.40821    31.83661
   1.56741   291.000    42.71150    74.65588    31.94437
   1.57369   292.000    42.85139    74.90350    32.05211
   1.57998   293.000    42.99125    75.15108    32.15983
   1.58628   294.000    43.13108    75.39862    32.26753
   1.59258   295.000    43.27090    75.64611    32.37521
   1.59889   296.000    43.41069    75.89356    32.48287
   1.60521   297.000    43.55046    76.14097    32.59051
   1.61153   298.000    43.69021    76.38834    32.69812
   1.61786   299.000    43.82994    76.63566    32.80572
   1.62420   300.000    43.96964    76.88294    32.91330
   1.63054   301.000    44.10933    77.13018    33.02085
   1.63689   302.000    44.24899    77.37737    33.12839
   1.64324   303.000    44.38863    77.62453    33.23590
   1.64960   304.000    44.52824    77.87164    33.34339
   1.65597   305.000    44.66784    78.11871    33.45087
   1.66234   306.000    44.80741    78.36573    33.55832
   1.66873   307.000    44.94696    78.61272    33.66575
   1.67511   308.000    45.08650    78.85966    33.77316
   1.68151   309.000    45.22600    79.10656    33.88056
   1.68791   310.000    45.36549    79.35342    33.98793
   1.69431   311.000    45.50496    79.60024    34.09528
   1.70073   312.000    45.64441    79.84702    34.20261
   1.70715   313.000    45.78383    80.09375    34.30992
   1.71357   314.000    45.92324    80.34045    34.41721
   1.72001   315.000    46.06262    80.58710    34.52448
   1.72645   316.000    46.20198    80.83371    34.63173
   1.73289   317.000    46.34132    81.08029    34.73896
   1.73935   318.000    46.48065    81.32682    34.84617
   1.74581   319.000    46.61995    81.57331    34.95336
   1.75227   320.000    46.75923    81.81976    35.06053
   1.75874   321.000    46.89849    82.06617    35.16768
   1.76522   322.000    47.03773    82.31254    35.27481
   1.77171   323.000    47.17695    82.55887    35.38192
   1.77820   324.000    47.31615    82.80516    35.48901
   1.78470   325.000    47.45533    83.05141    35.59608
   1.79121   326.000    47.59449    83.29762    35.70313
   1.79772   327.000    47.73363    83.54379    35.81017
   1.80424   328.000    47.87275    83.78992    35.91718
   1.81076   329.000    48.01185    84.03601    36.02417
   1.81730   330.000    48.15093    84.28207    36.13114
   1.82384   331.000    48.28999    84.52808    36.23809
   1.83038   332.000    48.42903    84.77405    36.34502
   1.83694   333.000    48.56805    85.01999    36.45194
   1.84350   334.000    48.70706    85.26589    36.55883
   1.85006   335.000    48.84604    85.51174    36.66570
   1.85663   336.000    48.98501    85.75756    36.77256
   1.86321   337.000    49.12395    86.00334    36.87939
   1.86980   338.000    49.26288    86.24909    36.98621
   1.87639   339.000    49.40179    86.49479    37.09300
   1.88299   340.000    49.54068    86.74046    37.19978
   1.88960   341.000    49.67955    86.98608    37.30654
   1.89622   342.000    49.81840    87.23167    37.41327
   1.90284   343.000    49.95724    87.47723    37.51999
   1.90946   344.000    50.09605    87.72274    37.62669
   1.91610   345.000    50.23485    87.96822    37.73337
   1.92274   346.000    50.37363    88.21366    37.84003
   1.92939   347.000    50.51239    88.45906    37.94667
   1.93604   348.000    50.65113    88.70442    38.05329
   1.94270   349.000    50.78986    88.94975    38.15989
   1.94937   350.000    50.92856    89.19504    38.26648
   1.95605   351.000    51.06725    89.44030    38.37304
   1.96273   352.000    51.20593    89.68551    38.47959
   1.96942   353.000    51.34458    89.93069    38.58611
   1.97611   354.000    51.48322    90.17584    38.69262
   1.98282   355.000    51.62183    90.42094    38.79911
   1.98953   356.000    51.76044    90.66601    38.90558
   1.99624   357.000    51.89902    90.91105    39.01203
   2.00297   358.000    52.03759    91.15605    39.11846
   2.00970   359.000    52.17614    91.40101    39.22487
   2.01644   360.000    52.31467    91.64593    39.33126
   2.02318   361.000    52.45319    91.89083    39.43764
   2.02993   362.000    52.59168    92.13568    39.54400
   2.03669   363.000    52.73017    92.38050    39.65033
   2.04346   364.000    52.86863    92.62528    39.75665
   2.05023   365.000    53.00708    92.87003    39.86295
   2.05701   366.000    53.14551    93.11475    39.96923
   2.06380   367.000    53.28393    93.35942    40.07549
   2.07059   368.000    53.42233    93.60407    40.18174
   2.07739   369.000    53.56071    93.84868    40.28796
   2.08420   370.000    53.69908    94.09325    40.39417
   2.09101   371.000    53.83743    94.33779    40.50036
   2.09784   372.000    53.97577    94.58229    40.60653
   2.10467   373.000    54.11408    94.82676    40.71268
   2.11150   374.000    54.25239    95.07120    40.81881
   2.11835   375.000    54.39068    95.31560    40.92493
   2.12520   376.000    54.52895    95.55997    41.03102
   2.13205   377.000    54.66720    95.80430    41.13710
   2.13892   378.000    54.80544    96.04860    41.24316
   2.14579   379.000    54.94367    96.29287    41.34920
   2.15267   380.000    55.08188    96.53710    41.45522
   2.15956   381.000    55.22007    96.78130    41.56123
   2.16645   382.000    55.35825    97.02547    41.66721
   2.17335   383.000    55.49642    97.26960    41.77318
   2.18026   384.000    55.63457    97.51370    41.87913
   2.18717   385.000    55.77270    97.75777    41.98506
   2.19410   386.000    55.91082    98.00180    42.09098
   2.20103   387.000    56.04893    98.24580    42.19687
   2.20796   388.000    56.18702    98.48977    42.30275
   2.21491   389.000    56.32510    98.73371    42.40861
   2.22186   390.000    56.46316    98.97761    42.51445
   2.22882   391.000    56.60120    99.22148    42.62028
   2.23578   392.000    56.73924    99.46532    42.72608
   2.24275   393.000    56.87726    99.70913    42.83187
   2.24974   394.000    57.01526    99.95290    42.93764
   2.25672   395.000    57.15325   100.19665    43.04339
   2.26372   396.000    57.29123   100.44036    43.14913
   2.27072   397.000    57.42919   100.68404    43.25484
   2.27773   398.000    57.56714   100.92769    43.36054
   2.28475   399.000    57.70508   101.17130    43.46622
   2.29177   400.000    57.84300   101.41489    43.57189
   2.29880   401.000    57.98091   101.65844    43.67753
   2.30584   402.000    58.11880   101.90197    43.78316
   2.31289   403.000    58.25669   102.14546    43.88877
   2.31994   404.000    58.39456   102.38892    43.99437
   2.32700   405.000    58.53241   102.63235    44.09994
   2.33407   406.000    58.67025   102.87575    44.20550
   2.34115   407.000    58.80808   103.11912    44.31104
   2.34823   408.000    58.94590   103.36246    44.41656
   2.35532   409.000    59.08370   103.60577    44.52207
   2.36242   410.000    59.22150   103.84905    44.62756
   2.36994   411.000    59.35721   104.08658    44.72936
   2.37747   412.000    59.49293   104.32406    44.83114
   2.38501   413.000    59.62863   104.56151    44.93287
   2.39255   414.000    59.76434   104.79891    45.03458
   2.40010   415.000    59.90003   105.03628    45.13625
   2.40766   416.000    60.03573   105.27361    45.23788
   2.41523   417.000    60.17142   105.51090    45.33949
   2.42280   418.000    60.30710   105.74816    45.44105
   2.43039   419.000    60.44278   105.98537    45.54259
   2.43798   420.000    60.57846   106.22255    45.64409
   2.44557   421.000    60.71413   106.45969    45.74556
   2.45318   422.000    60.84980   106.69680    45.84699
   2.46079   423.000    60.98547   106.93386    45.94839
   2.46841   424.000    61.12113   107.17089    46.04976
   2.47604   425.000    61.25679   107.40788    46.15110
   2.48368   426.000    61.39244   107.64484    46.25240
   2.49132   427.000    61.52809   107.88176    46.35366
   2.49898   428.000    61.66374   108.11864    46.45490
   2.50664   429.000    61.79938   108.35548    46.55610
   2.51430   430.000    61.93502   108.59229    46.65727
   2.52198   431.000    62.07066   108.82906    46.75841
   2.52966   432.000    62.20629   109.06580    46.85951
   2.53736   433.000    62.34192   109.30250    46.96058
   2.54505   434.000    62.47755   109.53916    47.06161
   2.55276   435.000    62.61317   109.77579    47.16262
   2.56048   436.000    62.74880   110.01239    47.26359
   2.56820   437.000    62.88442   110.24894    47.36453
   2.57593   438.000    63.02003   110.48547    47.46543
   2.58367   439.000    63.15565   110.72196    47.56631
   2.59142   440.000    63.29126   110.95841    47.66715
   2.59917   441.000    63.42687   111.19483    47.76796
   2.60694   442.000    63.56248   111.43121    47.86873
   2.61471   443.000    63.69808   111.66756    47.96948
   2.62249   444.000    63.83368   111.90387    48.07019
   2.63028   445.000    63.96929   112.14015    48.17087
   2.63807   446.000    64.10488   112.37640    48.27151
   2.64587   447.000    64.24048   112.61261    48.37213
   2.65369   448.000    64.37608   112.84879    48.47271
   2.66150   449.000    64.51167   113.08493    48.57326
   2.66933   450.000    64.64726   113.32104    48.67378
   2.67717   451.000    64.78286   113.55712    48.77427
   2.68501   452.000    64.91844   113.79317    48.87472
   2.69286   453.000    65.05403   114.02918    48.97514
   2.70072   454.000    65.18962   114.26516    49.07554
   2.70859   455.000    65.32521   114.50110    49.17590
   2.71647   456.000    65.46079   114.73701    49.27622
   2.72435   457.000    65.59638   114.97289    49.37652
   2.73225   458.000    65.73196   115.20874    49.47678
   2.74015   459.000    65.86754   115.44456    49.57702
   2.74806   460.000    66.00312   115.68034    49.67722
   2.75597   461.000    66.13870   115.91609    49.77739
   2.76390   462.000    66.27429   116.15181    49.87753
   2.77183   463.000    66.40987   116.38750    49.97763
   2.77978   464.000    66.54545   116.62316    50.07771
   2.78773   465.000    66.68103   116.85878    50.17776
   2.79568   466.000    66.81661   117.09438    50.27777
   2.80365   467.000    66.95219   117.32994    50.37775
   2.81163   468.000    67.08777   117.56547    50.47770
   2.81961   469.000    67.22335   117.80097    50.57762
   2.82760   470.000    67.35893   118.03644    50.67751
   2.83560   471.000    67.49451   118.27188    50.77737
   2.84361   472.000    67.63009   118.50729    50.87720
   2.85163   473.000    67.76567   118.74267    50.97700
   2.85965   474.000    67.90125   118.97802    51.07676
   2.86769   475.000    68.03684   119.21334    51.17650
   2.87573   476.000    68.17242   119.44863    51.27621
   2.88378   477.000    68.30801   119.68389    51.37588
   2.89184   478.000    68.44359   119.91912    51.47552
   2.89991   479.000    68.57918   120.15432    51.57514
   2.90798   480.000    68.71477   120.38949    51.67472
   2.91607   481.000    68.85036   120.62463    51.77427
   2.92416   482.000    68.98595   120.85974    51.87380
   2.93226   483.000    69.12154   121.09483    51.97329
   2.94037   484.000    69.25713   121.32988    52.07275
   2.94849   485.000    69.39273   121.56491    52.17218
   2.95662   486.000    69.52832   121.79991    52.27158
   2.96475   487.000    69.66392   122.03488    52.37096
   2.97290   488.000    69.79953   122.26982    52.47030
   2.98105   489.000    69.93513   122.50474    52.56961
   2.98921   490.000    70.07073   122.73962    52.66889
   2.99738   491.000    70.20634   122.97448    52.76814
   3.00556   492.000    70.34195   123.20932    52.86736
   3.01375   493.000    70.47756   123.44412    52.96656
   3.02194   494.000    70.61318   123.67890    53.06572
   3.03015   495.000    70.74879   123.91365    53.16485
   3.03836   496.000    70.88441   124.14837    53.26396
   3.04658   497.000    71.02004   124.38307    53.36303
   3.05481   498.000    71.15566   124.61774    53.46207
   3.06305   499.000    71.29129   124.85238    53.56109
   3.07130   500.000    71.42692   125.08700    53.66008
   3.07956   501.000    71.56256   125.32159    53.75903
   3.08782   502.000    71.69820   125.55615    53.85796
   3.09610   503.000    71.83384   125.79069    53.95686
   3.10438   504.000    71.96948   126.02521    54.05572
   3.11267   505.000    72.10513   126.25970    54.15456
   3.12097   506.000    72.24078   126.49416    54.25337
   3.12928   507.000    72.37644   126.72860    54.35216
   3.13760   508.000    72.51210   126.96301    54.45091
   3.14593   509.000    72.64776   127.19740    54.54963
   3.15426   510.000    72.78343   127.43176    54.64833
   3.16261   511.000    72.91910   127.66610    54.74699
   3.17096   512.000    73.05478   127.90041    54.84563
   3.17933   513.000    73.19046   128.13470    54.94424
   3.18770   514.000    73.32615   128.36896    55.04282
   3.19608   515.000    73.46184   128.60320    55.14137
   3.20447   516.000    73.59753   128.83742    55.23989
   3.21287   517.000    73.73323   129.07161    55.33838
   3.22127   518.000    73.86893   129.30578    55.43685
   3.22969   519.000    74.00464   129.53993    55.53529
   3.23812   520.000    74.14036   129.77405    55.63370
   3.24655   521.000    74.27608   130.00815    55.73208
   3.25499   522.000    74.41180   130.24223    55.83043
   3.26345   523.000    74.54753   130.47628    55.92875
   3.27191   524.000    74.68327   130.71031    56.02705
   3.28038   525.000    74.81901   130.94432    56.12532
   3.28886   526.000    74.95475   131.17831    56.22355
   3.29735   527.000    75.09051   131.41227    56.32177
   3.30585   528.000    75.22627   131.64622    56.41995
   3.31435   529.000    75.36203   131.88014    56.51811
   3.32287   530.000    75.49780   132.11403    56.61623
   3.33140   531.000    75.63358   132.34791    56.71433
   3.33993   532.000    75.76936   132.58177    56.81241
   3.34847   533.000    75.90515   132.81560    56.91045
   3.35703   534.000    76.04094   133.04941    57.00847
   3.36559   535.000    76.17675   133.28321    57.10646
   3.37416   536.000    76.31256   133.51698    57.20442
   3.38274   537.000    76.44837   133.75073    57.30235
   3.39133   538.000    76.58420   133.98446    57.40026
   3.39993   539.000    76.72002   134.21817    57.49814
   3.40854   540.000    76.85586   134.45186    57.59599
   3.41716   541.000    76.99171   134.68552    57.69382
   3.42579   542.000    77.12756   134.91917    57.79162
   3.43442   543.000    77.26342   135.15280    57.88939
   3.44307   544.000    77.39928   135.38641    57.98713
   3.45172   545.000    77.53516   135.62000    58.08485
   3.46039   546.000    77.67104   135.85358    58.18254
   3.46906   547.000    77.80693   136.08713    58.28020
   3.47775   548.000    77.94283   136.32066    58.37783
   3.48644   549.000    78.07873   136.55418    58.47544
   3.49514   550.000    78.21465   136.78767    58.57303
   3.50386   551.000    78.35057   137.02115    58.67058
   3.51258   552.000    78.48650   137.25461    58.76811
   3.52131   553.000    78.62244   137.48805    58.86561
   3.53005   554.000    78.75839   137.72147    58.96309
   3.53880   555.000    78.89434   137.95488    59.06053
   3.54756   556.000    79.03031   138.18826    59.15796
   3.55633   557.000    79.16628   138.42163    59.25535
   3.56511   558.000    79.30227   138.65499    59.35272
   3.57389   559.000    79.43826   138.88832    59.45006
   3.58269   560.000    79.57426   139.12164    59.54738
   3.59150   561.000    79.71027   139.35494    59.64467
   3.60032   562.000    79.84629   139.58823    59.74193
   3.60914   563.000    79.98232   139.82149    59.83917
   3.61798   564.000    80.11836   140.05475    59.93638
   3.62683   565.000    80.25441   140.28798    60.03357
   3.63568   566.000    80.39047   140.52120    60.13073
   3.64455   567.000    80.52654   140.75440    60.22786
   3.65343   568.000    80.66262   140.98759    60.32497
   3.66231   569.000    80.79871   141.22076    60.42205
   3.67121   570.000    80.93481   141.45392    60.51911
   3.68011   571.000    81.07092   141.68706    60.61614
   3.68903   572.000    81.20704   141.92019    60.71314
   3.69795   573.000    81.34318   142.15330    60.81012
   3.70688   574.000    81.47932   142.38640    60.90708
   3.71583   575.000    81.61547   142.61948    61.00400
   3.72478   576.000    81.75164   142.85255    61.10091
   3.73375   577.000    81.88781   143.08560    61.19778
   3.74272   578.000    82.02400   143.31864    61.29464
   3.75170   579.000    82.16020   143.55166    61.39146
   3.76070   580.000    82.29641   143.78467    61.48826
   3.76970   581.000    82.43263   144.01767    61.58504
   3.77872   582.000    82.56887   144.25066    61.68179
   3.78774   583.000    82.70511   144.48363    61.77852
   3.79677   584.000    82.84137   144.71659    61.87522
   3.80582   585.000    82.97764   144.94953    61.97189
   3.81487   586.000    83.11392   145.18246    62.06854
   3.82393   587.000    83.25022   145.41538    62.16517
   3.83301   588.000    83.38652   145.64829    62.26177
   3.84209   589.000    83.52284   145.88118    62.35834
   3.85119   590.000    83.65917   146.11407    62.45489
   3.86029   591.000    83.79552   146.34694    62.55142
   3.86940   592.000    83.93188   146.57980    62.64792
   3.87853   593.000    84.06825   146.81264    62.74440
   3.88766   594.000    84.20463   147.04548    62.84085
   3.89681   595.000    84.34103   147.27831    62.93728
   3.90596   596.000    84.47744   147.51112    63.03368
   3.91513   597.000    84.61386   147.74392    63.13006
   3.92431   598.000    84.75030   147.97671    63.22641
   3.93349   599.000    84.88675   148.20949    63.32274
   3.94269   600.000    85.02321   148.44227    63.41905
   3.95189   601.000    85.15969   148.67503    63.51533
   3.96111   602.000    85.29619   148.90778    63.61159
   3.97034   603.000    85.43269   149.14052    63.70782
   3.97958   604.000    85.56922   149.37325    63.80403
   3.98882   605.000    85.70575   149.60597    63.90022
   3.99808   606.000    85.84230   149.83868    63.99638
   4.00735   607.000    85.97887   150.07138    64.09252
   4.01663   608.000    86.11545   150.30408    64.18863
   4.02592   609.000    86.25204   150.53676    64.28472
   4.03522   610.000    86.38865   150.76944    64.38079
   4.04453   611.000    86.52528   151.00211    64.47683
   4.05385   612.000    86.66192   151.23477    64.57285
   4.06319   613.000    86.79858   151.46742    64.66884
   4.07253   614.000    86.93525   151.70006    64.76481
   4.08188   615.000    87.07194   151.93270    64.86076
   4.09124   616.000    87.20864   152.16532    64.95669
   4.10062   617.000    87.34536   152.39794    65.05259
   4.11000   618.000    87.48209   152.63056    65.14846
   4.11940   619.000    87.61884   152.86316    65.24432
   4.12880   620.000    87.75561   153.09576    65.34015
   4.13822   621.000    87.89240   153.32835    65.43596
   4.14765   622.000    88.02920   153.56094    65.53174
   4.15709   623.000    88.16601   153.79352    65.62750
   4.16654   624.000    88.30285   154.02609    65.72324
   4.17600   625.000    88.43970   154.25866    65.81896
   4.18547   626.000    88.57657   154.49122    65.91465
   4.19495   627.000    88.71345   154.72378    66.01032
   4.20444   628.000    88.85036   154.95633    66.10597
   4.21394   629.000    88.98728   155.18887    66.20159
   4.22346   630.000    89.12422   155.42141    66.29719
   4.23298   631.000    89.26117   155.65394    66.39277
   4.24252   632.000    89.39814   155.88647    66.48833
   4.25206   633.000    89.53514   156.11900    66.58386
   4.26162   634.000    89.67215   156.35152    66.67937
   4.27119   635.000    89.80917   156.58404    66.77486
   4.28077   636.000    89.94622   156.81655    66.87033
   4.29036   637.000    90.08329   157.04906    66.96577
   4.29996   638.000    90.22037   157.28156    67.06119
   4.30957   639.000    90.35747   157.51406    67.15659
   4.31919   640.000    90.49459   157.74656    67.25197
   4.32883   641.000    90.63173   157.97906    67.34732
   4.33847   642.000    90.76889   158.21155    67.44266
   4.34813   643.000    90.90607   158.44404    67.53797
   4.35780   644.000    91.04327   158.67652    67.63326
   4.36748   645.000    91.18049   158.90901    67.72852
   4.37717   646.000    91.31772   159.14149    67.82377
   4.38687   647.000    91.45498   159.37397    67.91899
   4.39658   648.000    91.59226   159.60645    68.01419
   4.40631   649.000    91.72956   159.83893    68.10937
   4.41604   650.000    91.86687   160.07140    68.20453
   4.42579   651.000    92.00421   160.30387    68.29966
   4.43555   652.000    92.14157   160.53635    68.39478
   4.44532   653.000    92.27895   160.76882    68.48987
   4.45510   654.000    92.41635   161.00129    68.58494
   4.46489   655.000    92.55377   161.23376    68.67999
   4.47469   656.000    92.69121   161.46623    68.77502
   4.48451   657.000    92.82868   161.69870    68.87002
   4.49433   658.000    92.96616   161.93117    68.96501
   4.50417   659.000    93.10367   162.16364    69.05997
   4.51402   660.000    93.24120   162.39611    69.15492
   4.52511   661.000    93.37944   162.62558    69.24614
   4.53621   662.000    93.51771   162.85504    69.33732
   4.54732   663.000    93.65603   163.08450    69.42847
   4.55845   664.000    93.79438   163.31396    69.51958
   4.56959   665.000    93.93277   163.54342    69.61065
   4.58074   666.000    94.07120   163.77288    69.70168
   4.59191   667.000    94.20967   164.00234    69.79267
   4.60308   668.000    94.34817   164.23180    69.88363
   4.61427   669.000    94.48672   164.46126    69.97455
   4.62547   670.000    94.62530   164.69073    70.06543
   4.63669   671.000    94.76392   164.92019    70.15627
   4.64791   672.000    94.90258   165.14966    70.24708
   4.65915   673.000    95.04127   165.37912    70.33785
   4.67041   674.000    95.18001   165.60859    70.42858
   4.68167   675.000    95.31879   165.83806    70.51927
   4.69295   676.000    95.45761   166.06753    70.60993
   4.70424   677.000    95.59646   166.29701    70.70055
   4.71554   678.000    95.73536   166.52649    70.79113
   4.72686   679.000    95.87429   166.75597    70.88167
   4.73818   680.000    96.01327   166.98545    70.97218
   4.74953   681.000    96.15228   167.21493    71.06265
   4.76088   682.000    96.29134   167.44442    71.15308
   4.77225   683.000    96.43044   167.67392    71.24348
   4.78363   684.000    96.56957   167.90341    71.33384
   4.79502   685.000    96.70875   168.13291    71.42416
   4.80643   686.000    96.84797   168.36242    71.51445
   4.81784   687.000    96.98723   168.59193    71.60470
   4.82928   688.000    97.12653   168.82145    71.69491
   4.84072   689.000    97.26588   169.05097    71.78509
   4.85218   690.000    97.40526   169.28049    71.87523
   4.86365   691.000    97.54469   169.51002    71.96533
   4.87513   692.000    97.68416   169.73956    72.05540
   4.88663   693.000    97.82367   169.96910    72.14544
   4.89814   694.000    97.96322   170.19865    72.23543
   4.90966   695.000    98.10282   170.42821    72.32539
   4.92120   696.000    98.24245   170.65777    72.41532
   4.93275   697.000    98.38213   170.88734    72.50520
   4.94431   698.000    98.52186   171.11691    72.59506
   4.95589   699.000    98.66163   171.34650    72.68487
   4.96748   700.000    98.80144   171.57609    72.77465
